# Vcmd[V]	<I_LED>[A]	SE_I_LED[A]	<I_PD>[A]	SE_I_PD[A]
2.000000000000000000e+00	2.533546203893932277e-06	1.648755477835764927e-07	-9.289910132752499516e-08	5.032345664907787479e-09
2.020000000000000018e+00	2.921283896866973282e-06	5.812126094844943116e-08	-8.918877925681868013e-08	3.850927100472961984e-09
2.040000000000000036e+00	3.628967095459365522e-06	5.478642033258133904e-08	-8.851959616906628550e-08	2.278624774703216704e-09
2.060000000000000053e+00	4.612677933758067596e-06	5.601561266189311010e-08	-8.419972118674394434e-08	7.656936414225054690e-09
2.080000000000000071e+00	6.117046629786169077e-06	8.247183906426819859e-08	-7.526182034141749890e-08	3.003030505701226023e-09
2.100000000000000089e+00	9.587125069850734759e-06	5.833631557351813205e-08	-8.172175608952224760e-08	5.255584773596555363e-09
2.120000000000000107e+00	1.330751608339593800e-05	5.577581656730127946e-08	-7.758077163560895903e-08	5.101301320939990925e-09
2.140000000000000124e+00	1.846236476120738756e-05	6.990879724210567931e-08	-6.953732343232776327e-08	4.165461195685294585e-09
2.160000000000000142e+00	2.553496025054548065e-05	2.468525319485339505e-08	-5.698848414318893707e-08	1.393868899750456697e-09
2.180000000000000160e+00	3.469837361510466639e-05	8.895166536688951907e-08	-3.978849111541470399e-08	4.401903170569058619e-09
2.200000000000000178e+00	4.643550875770847259e-05	9.670678543782370180e-08	-2.733240987804351912e-08	3.112550353449680724e-09
2.220000000000000195e+00	5.952716334372796256e-05	6.586416034398013091e-08	2.038764656672665340e-09	2.114612271337117174e-09
2.240000000000000213e+00	7.408910332673207338e-05	9.388127635683212470e-08	5.196247323305128944e-08	6.724493641280257927e-09
2.259999999999999787e+00	9.035940976929978383e-05	1.385542178290257191e-07	9.410775661119918824e-08	4.911730150518232377e-09
2.280000000000000249e+00	1.076084297061806488e-04	1.078172221591410959e-07	1.346960298346757191e-07	3.965720820416671310e-09
2.299999999999999822e+00	1.263359214843483693e-04	6.706386748260925551e-08	1.898605683359269702e-07	5.175435172242048502e-09
2.319999999999999840e+00	1.455526736985631006e-04	6.467393190909816329e-08	2.404269576995528800e-07	4.303182254456341992e-09
2.339999999999999858e+00	1.654298311903310047e-04	1.444836299977557264e-07	3.011503537317374464e-07	6.159103775913604778e-09
2.359999999999999876e+00	1.859822258705074740e-04	8.953458056278822402e-08	3.518558801730148562e-07	4.454591998761284456e-09
2.379999999999999893e+00	2.072952856931833574e-04	1.042871440409688187e-07	4.141031584842393687e-07	3.045361840000445276e-09
2.399999999999999911e+00	2.289477458655889250e-04	1.112808708630102987e-07	4.608200886995075694e-07	4.390979635725561264e-09
2.419999999999999929e+00	2.509099425660107625e-04	1.110432426191376358e-07	5.381339248478503427e-07	4.999078757820905096e-09
2.439999999999999947e+00	2.730613905965175933e-04	7.711146437589576229e-08	6.019580900391251185e-07	2.390593445505799081e-09
2.459999999999999964e+00	2.958162277277783274e-04	9.911009824877228311e-08	6.538032154021194755e-07	6.048894278160835691e-09
2.479999999999999982e+00	3.188001889884393156e-04	6.511824093506343859e-08	7.265785325889731437e-07	4.034738617271208213e-09
2.500000000000000000e+00	3.418601397144627467e-04	1.076045541356089688e-07	7.866194943831526038e-07	3.512814075458981064e-09
2.520000000000000018e+00	3.650866123487388074e-04	1.265611533101156662e-07	8.557706219759415899e-07	4.855843735702612843e-09
2.540000000000000036e+00	3.884467648029426299e-04	1.110004234487747055e-07	9.116175947151976296e-07	1.469011185460364973e-09
2.560000000000000053e+00	4.123860359583164485e-04	1.296396904328507522e-07	9.780323597808406687e-07	3.843713074801734220e-09
2.580000000000000071e+00	4.364084236011529609e-04	9.864827294293502835e-08	1.035283954446864182e-06	3.849404980193794996e-09
2.600000000000000089e+00	4.603326702234514277e-04	9.946956179219342599e-08	1.093615517858468380e-06	3.770304468785241385e-09
2.620000000000000107e+00	4.843992646655287458e-04	8.396572429623619791e-08	1.158413642593303524e-06	1.859905269835687254e-09
2.640000000000000124e+00	5.086026208830365328e-04	1.333658503150240366e-07	1.230486648816773508e-06	7.119210533298518712e-09
2.660000000000000142e+00	5.330796932736239432e-04	1.161019938500923152e-07	1.300340087372946178e-06	3.900891405235802425e-09
2.680000000000000160e+00	5.578384756593751225e-04	8.626209778413148940e-08	1.365131586532655059e-06	4.913463706069494457e-09
2.700000000000000178e+00	5.824175415148787321e-04	1.461166500713892454e-07	1.427948664304738151e-06	2.377201510862430838e-09
2.719999999999999751e+00	6.070950373242467620e-04	1.626663418591838748e-07	1.497013659420885504e-06	5.706785973975347652e-09
2.740000000000000213e+00	6.317865945555974213e-04	1.880037878562475958e-07	1.563295912984003174e-06	5.092212477829317208e-09
2.759999999999999787e+00	6.565853460517732856e-04	1.028428363441229543e-07	1.635382170357725896e-06	3.029623467904748280e-09
2.780000000000000249e+00	6.816779427429064172e-04	1.020769867444229098e-07	1.696456721871601987e-06	4.886248233439029794e-09
2.799999999999999822e+00	7.066573738804258261e-04	1.356035624934710459e-07	1.766243904676511814e-06	2.131453799739156129e-09
2.820000000000000284e+00	7.317311899052146053e-04	1.412267535518859334e-07	1.831532321970690220e-06	2.850198899410783949e-09
2.839999999999999858e+00	7.568366922850141339e-04	1.232031422979616604e-07	1.899842001522443996e-06	5.700742404091364187e-09
2.859999999999999876e+00	7.821515750167757578e-04	1.117467883360073160e-07	1.969774946980131612e-06	4.969141591086183597e-09
2.879999999999999893e+00	8.073794888166967512e-04	1.075312997962593683e-07	2.028417912422669967e-06	3.021247727770117632e-09
2.899999999999999911e+00	8.325688781728344742e-04	1.386104756073192062e-07	2.088531755543238746e-06	3.368959993770651613e-09
2.919999999999999929e+00	8.579306644149020233e-04	1.297970783119460871e-07	2.164315083837414410e-06	2.638871836842986129e-09
2.939999999999999947e+00	8.832962067902387897e-04	1.259011851983381310e-07	2.229186089898638872e-06	4.231759034421570607e-09
2.959999999999999964e+00	9.089434591607392167e-04	1.128040143503625591e-07	2.289346312045091493e-06	3.374906293087680867e-09
2.979999999999999982e+00	9.345866664646427504e-04	1.343747426788798882e-07	2.356675406478158319e-06	4.169461318972775972e-09
3.000000000000000000e+00	9.600847329265932689e-04	1.423054900306158273e-07	2.422825148538750726e-06	2.982741645079874387e-09
3.020000000000000018e+00	9.855981128549476823e-04	1.263353062497614264e-07	2.488789374495807340e-06	4.088446945372107425e-09
3.040000000000000036e+00	1.011275703224927573e-03	1.602849085136249695e-07	2.563525861920035118e-06	9.823630110744291112e-10
3.060000000000000053e+00	1.036978719727804947e-03	1.683173107429099107e-07	2.626468825619516998e-06	7.061138111192511069e-09
3.080000000000000071e+00	1.062528216322205891e-03	1.627178545775116044e-07	2.680738911478722933e-06	4.562113833838318197e-09
3.100000000000000089e+00	1.088226320958500526e-03	1.473373163375287585e-07	2.747246434596133127e-06	6.006760806520517834e-09
3.120000000000000107e+00	1.113988761415912743e-03	1.873042104379071283e-07	2.830013119073389323e-06	4.132449868934550191e-09
3.140000000000000124e+00	1.139953455203186966e-03	1.161055290971044986e-07	2.891664095623250733e-06	3.976692047834076450e-09
3.160000000000000142e+00	1.165968038145160290e-03	1.814509098054157987e-07	2.943336956032961930e-06	5.630836537600720716e-09
3.179999999999999716e+00	1.191812824601158616e-03	1.848241557841048522e-07	3.009950488352392334e-06	5.289402491004080303e-09
3.200000000000000178e+00	1.217592793680493052e-03	1.915767295997678223e-07	3.060974042399730588e-06	8.883753617340282684e-09
3.219999999999999751e+00	1.243500760224295655e-03	1.653745886253272328e-07	3.130198051318908681e-06	3.951273813110721426e-09
3.240000000000000213e+00	1.269508986633045584e-03	2.049945596129774204e-07	3.191908658044906036e-06	5.953113355784038269e-09
3.259999999999999787e+00	1.295493809442195337e-03	2.022250307605671910e-07	3.251247308875701600e-06	6.266664608281805671e-09
3.280000000000000249e+00	1.321378757630839364e-03	1.692893167468647991e-07	3.320371934167985745e-06	2.531056418933710342e-09
3.299999999999999822e+00	1.347343644040331677e-03	2.279351303171653768e-07	3.373986088089691203e-06	4.595451336157693178e-09
3.320000000000000284e+00	1.373449144669634022e-03	1.831660571086117084e-07	3.426288378136398248e-06	4.633707648696636110e-09
3.339999999999999858e+00	1.399597118498205860e-03	1.109534077767760327e-07	3.488429647245602285e-06	6.200911829913453672e-09
3.360000000000000320e+00	1.425809042903459101e-03	1.579531264354613774e-07	3.553704813389528377e-06	3.693310953778866920e-09
3.379999999999999893e+00	1.451841636022900301e-03	1.803580400100516529e-07	3.609584914004415415e-06	5.466527113195897384e-09
3.400000000000000355e+00	1.477965532074108869e-03	1.452112847115205006e-07	3.663232195801753036e-06	7.049803413353474872e-09
3.419999999999999929e+00	1.503985026882664064e-03	1.591995546147203637e-07	3.726526314982926017e-06	3.167995034276691899e-09
3.439999999999999947e+00	1.530267547331148805e-03	1.596739005230380925e-07	3.794776364358543848e-06	5.129971076443836056e-09
3.459999999999999964e+00	1.556583969290163596e-03	1.730473326622841172e-07	3.849874647108532256e-06	3.154949719635853734e-09
3.479999999999999982e+00	1.582659324542205108e-03	1.659974009984323004e-07	3.915076931926070723e-06	1.436825894264509572e-09
3.500000000000000000e+00	1.608841970370182171e-03	9.153551436900589708e-08	3.976370127419113922e-06	2.102683444661931660e-09
3.520000000000000018e+00	1.635255473927529988e-03	1.484454630749348762e-07	4.038219871222761533e-06	5.395539453348772460e-09
3.540000000000000036e+00	1.661752671838997259e-03	1.559413083746042240e-07	4.095425086862901628e-06	3.664194640302875004e-09
3.560000000000000053e+00	1.687949282777846064e-03	1.543892168553066953e-07	4.154823367869832713e-06	3.144207147692405729e-09
3.580000000000000071e+00	1.714210614782250581e-03	1.613043177106097263e-07	4.213837365519442229e-06	3.023753086371640422e-09
3.600000000000000089e+00	1.740444401809349744e-03	1.187957225918179741e-07	4.281491113133695528e-06	4.184214623482378962e-09
3.620000000000000107e+00	1.766962691853788195e-03	1.044782897642977406e-07	4.331235931181666684e-06	5.303829791238689289e-09
3.640000000000000124e+00	1.793264859768602809e-03	1.402539604536841016e-07	4.388308635319281516e-06	2.239463994883740334e-09
3.660000000000000142e+00	1.819647736393143270e-03	1.732186563595161534e-07	4.463237264422170078e-06	4.362728663795573781e-09
3.679999999999999716e+00	1.846056713328346043e-03	1.178716764312113718e-07	4.517553729307260279e-06	4.727042564828951452e-09
3.700000000000000178e+00	1.872382959020525662e-03	1.683235104120423684e-07	4.573162181341971374e-06	3.949426360810157646e-09
3.719999999999999751e+00	1.898921570709058817e-03	1.486731609008584453e-07	4.627319632424029565e-06	5.242741444189907034e-09
3.740000000000000213e+00	1.925473954886245623e-03	1.599927704677366044e-07	4.682345033847628654e-06	4.555402120375124484e-09
3.759999999999999787e+00	1.951924634531843799e-03	1.406719781202768821e-07	4.746314961691679632e-06	4.098669348782813316e-09
3.780000000000000249e+00	1.978401896043653196e-03	1.658821237451521673e-07	4.810331268561617416e-06	1.472145541247995011e-09
3.799999999999999822e+00	2.004939159376654522e-03	1.305388285652628977e-07	4.864979012203019928e-06	6.486409285834840470e-09
3.820000000000000284e+00	2.031441654399141795e-03	1.582191771352481882e-07	4.917811348259828873e-06	4.608710243244784424e-09
3.839999999999999858e+00	2.057931147421851459e-03	1.666619572366132440e-07	4.987976188846936336e-06	2.890213026250621630e-09
3.860000000000000320e+00	2.084533998620394669e-03	1.945416229218519775e-07	5.040265227743390008e-06	5.375638646581889782e-09
3.879999999999999893e+00	2.110998354443535934e-03	1.463329964949790845e-07	5.098338393725070154e-06	1.265701636016134335e-09
3.900000000000000355e+00	2.137480238888599636e-03	1.635906921327633022e-07	5.156033901924552876e-06	5.088266996188101642e-09
3.919999999999999929e+00	2.164084823687111286e-03	1.398477935843657137e-07	5.213331875616459808e-06	4.268557306107952473e-09
3.939999999999999947e+00	2.190637400486516832e-03	1.298666121104015625e-07	5.266243718574781371e-06	5.904272268426328488e-09
3.959999999999999964e+00	2.217315085417107499e-03	1.635395961445891172e-07	5.313484069225023356e-06	2.285357660393473247e-09
3.979999999999999982e+00	2.243940569726372673e-03	1.028691696861513842e-07	5.367442753053296193e-06	3.825840813342215184e-09
4.000000000000000000e+00	2.270329899195246658e-03	1.758774428593797189e-07	5.417883256489523711e-06	2.623782125999592004e-09
